NO + hv => N + O (wavelength = nm, qy = unitless)
wavelength          300K                
1.00000000e-01      1.00910000e-04      
5.00000000e-01      5.03180000e-04      
1.00000000e+00      1.00910000e-03      
1.20000000e+00      1.20990000e-03      
1.40000000e+00      1.41030000e-03      
1.50000000e+00      1.51180000e-03      
1.60000000e+00      1.61030000e-03      
1.70000000e+00      1.71090000e-03      
1.80000000e+00      1.81320000e-03      
1.90000000e+00      1.91670000e-03      
2.00000000e+00      2.01410000e-03      
2.10000000e+00      2.11540000e-03      
2.20000000e+00      2.21350000e-03      
2.60000000e+00      2.61250000e-03      
2.80000000e+00      2.81610000e-03      
3.00000000e+00      3.02330000e-03      
3.50000000e+00      3.52420000e-03      
4.00000000e+00      4.02890000e-03      
4.50000000e+00      4.53330000e-03      
5.00000000e+00      5.03450000e-03      
6.00000000e+00      6.04350000e-03      
7.00000000e+00      7.04350000e-03      
8.00000000e+00      8.05050000e-03      
9.00000000e+00      9.07800000e-03      
1.00000000e+01      1.00540000e-02      
1.10000000e+01      1.10730000e-02      
1.20000000e+01      1.20980000e-02      
1.30000000e+01      1.30880000e-02      
1.50000000e+01      1.51000000e-02      
2.00000000e+01      2.01300000e-02      
2.50000000e+01      2.51820000e-02      
3.00000000e+01      3.02170000e-02      
3.50000000e+01      3.57060000e-02      
4.00000000e+01      4.12640000e-02      
4.50000000e+01      4.64760000e-02      
5.00000000e+01      5.10920000e-02      
5.50000000e+01      5.62500000e-02      
5.84300000e+01      6.49350000e-02      
5.96300000e+01      7.47080000e-02      
6.01400000e+01      5.46220000e-02      
6.15600000e+01      4.75210000e-02      
6.16200000e+01      4.48130000e-02      
6.22500000e+01      2.00000000e-02      
6.32500000e+01      2.00000000e-02      
6.42500000e+01      6.01850000e-02      
6.52500000e+01      4.00000000e-02      
6.61900000e+01      2.00000000e-02      
6.72000000e+01      3.00000000e-02      
6.81100000e+01      6.02150000e-02      
6.82400000e+01      8.00000000e-02      
6.83700000e+01      3.00000000e-02      
6.84700000e+01      9.02060000e-02      
6.85700000e+01      5.97770000e-02      
6.86800000e+01      9.86780000e-02      
6.87400000e+01      1.20090000e-01      
6.88600000e+01      6.02150000e-02      
6.90400000e+01      7.98320000e-02      
6.91700000e+01      1.00000000e-01      
6.92700000e+01      7.00000000e-02      
6.94300000e+01      9.01100000e-02      
6.95700000e+01      8.43210000e-02      
6.96800000e+01      8.01890000e-02      
6.97900000e+01      1.29870000e-01      
6.99100000e+01      8.01080000e-02      
6.99500000e+01      8.52630000e-02      
6.99900000e+01      9.10450000e-02      
7.00200000e+01      9.48450000e-02      
7.00600000e+01      1.00500000e-01      
7.01300000e+01      1.10220000e-01      
7.02100000e+01      7.00000000e-02      
7.03500000e+01      1.60190000e-01      
7.04600000e+01      1.59790000e-01      
7.06000000e+01      1.60000000e-01      
7.07900000e+01      1.40100000e-01      
7.08200000e+01      1.39810000e-01      
7.08500000e+01      1.40000000e-01      
7.09100000e+01      1.80180000e-01      
7.10600000e+01      9.02440000e-02      
7.11900000e+01      1.89760000e-01      
7.12400000e+01      1.88140000e-01      
7.13000000e+01      1.85380000e-01      
7.13800000e+01      1.82440000e-01      
7.14400000e+01      1.80000000e-01      
7.16700000e+01      6.98720000e-02      
7.17500000e+01      1.55770000e-01      
7.18100000e+01      2.20180000e-01      
7.18500000e+01      2.00000000e-01      
7.18900000e+01      2.10130000e-01      
7.19300000e+01      2.19910000e-01      
7.19800000e+01      2.20000000e-01      
7.20300000e+01      2.59840000e-01      
7.21800000e+01      1.57540000e-01      
7.22000000e+01      1.43960000e-01      
7.22500000e+01      1.09760000e-01      
7.23100000e+01      1.57540000e-01      
7.23400000e+01      1.81180000e-01      
7.23700000e+01      2.04550000e-01      
7.24000000e+01      2.28570000e-01      
7.24400000e+01      2.59830000e-01      
7.25300000e+01      2.30170000e-01      
7.25600000e+01      2.35070000e-01      
7.26000000e+01      2.41540000e-01      
7.26500000e+01      2.50170000e-01      
7.27400000e+01      1.60090000e-01      
7.27700000e+01      1.30040000e-01      
7.28100000e+01      9.02060000e-02      
7.29100000e+01      2.44540000e-01      
7.29500000e+01      2.50160000e-01      
7.29900000e+01      2.36550000e-01      
7.30700000e+01      2.10000000e-01      
7.31300000e+01      2.64130000e-01      
7.31700000e+01      3.00000000e-01      
7.32100000e+01      2.74320000e-01      
7.32400000e+01      2.54860000e-01      
7.34100000e+01      1.45620000e-01      
7.34500000e+01      1.20260000e-01      
7.34800000e+01      1.28850000e-01      
7.35300000e+01      1.42860000e-01      
7.35900000e+01      1.60000000e-01      
7.36400000e+01      1.56890000e-01      
7.36800000e+01      1.54270000e-01      
7.37400000e+01      1.50280000e-01      
7.37900000e+01      1.69960000e-01      
7.38600000e+01      3.40070000e-01      
7.40300000e+01      1.77240000e-01      
7.41000000e+01      1.09930000e-01      
7.41300000e+01      1.59760000e-01      
7.41900000e+01      2.60220000e-01      
7.42900000e+01      3.02400000e-01      
7.43200000e+01      3.15430000e-01      
7.43700000e+01      3.36590000e-01      
7.44400000e+01      3.66080000e-01      
7.44700000e+01      3.78640000e-01      
7.45200000e+01      4.00780000e-01      
7.45800000e+01      2.90240000e-01      
7.46100000e+01      2.29950000e-01      
7.47000000e+01      8.99330000e-02      
7.47500000e+01      1.08970000e-01      
7.47800000e+01      1.20280000e-01      
7.48100000e+01      1.79890000e-01      
7.48600000e+01      2.83830000e-01      
7.49000000e+01      3.67160000e-01      
7.49400000e+01      4.49710000e-01      
7.49700000e+01      4.40240000e-01      
7.50000000e+01      4.30130000e-01      
7.50500000e+01      4.90740000e-01      
7.50800000e+01      5.31710000e-01      
7.51100000e+01      4.85580000e-01      
7.51900000e+01      3.60130000e-01      
7.52300000e+01      3.86600000e-01      
7.52800000e+01      4.20000000e-01      
7.53200000e+01      4.10180000e-01      
7.53500000e+01      3.83240000e-01      
7.54100000e+01      3.29660000e-01      
7.54600000e+01      3.90000000e-01      
7.55300000e+01      4.09930000e-01      
7.55900000e+01      5.70880000e-01      
7.56900000e+01      5.09930000e-01      
7.57100000e+01      5.19860000e-01      
7.57400000e+01      4.50000000e-01      
7.57900000e+01      4.50760000e-01      
7.58400000e+01      4.20000000e-01      
7.58700000e+01      4.70290000e-01      
7.59200000e+01      4.00000000e-01      
7.59500000e+01      4.49650000e-01      
7.59900000e+01      3.79710000e-01      
7.60500000e+01      4.29880000e-01      
7.61200000e+01      3.29920000e-01      
7.61500000e+01      3.50340000e-01      
7.61800000e+01      3.49580000e-01      
7.62400000e+01      4.60140000e-01      
7.62700000e+01      4.60140000e-01      
7.63300000e+01      5.20000000e-01      
7.63900000e+01      4.19860000e-01      
7.64600000e+01      4.59910000e-01      
7.65200000e+01      4.30200000e-01      
7.65500000e+01      5.10220000e-01      
7.66000000e+01      4.49660000e-01      
7.66300000e+01      4.69870000e-01      
7.66600000e+01      3.60000000e-01      
7.66900000e+01      3.89920000e-01      
7.67300000e+01      3.10380000e-01      
7.67600000e+01      3.40000000e-01      
7.68400000e+01      2.69660000e-01      
7.68700000e+01      3.15090000e-01      
7.69200000e+01      3.90500000e-01      
7.70200000e+01      4.39780000e-01      
7.70600000e+01      4.29930000e-01      
7.71300000e+01      4.49500000e-01      
7.72100000e+01      3.90150000e-01      
7.72400000e+01      5.69870000e-01      
7.72700000e+01      4.30300000e-01      
7.73000000e+01      4.80000000e-01      
7.73300000e+01      4.25980000e-01      
7.73600000e+01      3.72360000e-01      
7.74000000e+01      3.00000000e-01      
7.74600000e+01      3.09710000e-01      
7.75200000e+01      5.60130000e-01      
7.75700000e+01      5.29930000e-01      
7.76000000e+01      5.80130000e-01      
7.76600000e+01      5.90640000e-01      
7.76900000e+01      5.40000000e-01      
7.77300000e+01      5.58660000e-01      
7.79600000e+01      3.06780000e-01      
7.80200000e+01      2.39710000e-01      
7.80700000e+01      3.10160000e-01      
7.81200000e+01      3.80160000e-01      
7.81500000e+01      3.47170000e-01      
7.81900000e+01      3.03940000e-01      
7.82400000e+01      2.49570000e-01      
7.83600000e+01      5.20370000e-01      
7.84300000e+01      5.72690000e-01      
7.85100000e+01      6.29810000e-01      
7.85800000e+01      5.80120000e-01      
7.86200000e+01      5.39870000e-01      
7.86700000e+01      5.50300000e-01      
7.87100000e+01      4.10180000e-01      
7.87400000e+01      4.30000000e-01      
7.88000000e+01      3.15280000e-01      
7.88600000e+01      2.00000000e-01      
7.89400000e+01      3.28000000e-01      
7.90100000e+01      4.39770000e-01      
7.92100000e+01      4.98530000e-01      
7.93900000e+01      3.74510000e-01      
7.94400000e+01      3.40000000e-01      
7.95500000e+01      4.00000000e-01      
7.96500000e+01      4.40220000e-01      
7.96900000e+01      4.70050000e-01      
7.97400000e+01      4.60230000e-01      
7.97700000e+01      4.89940000e-01      
7.98000000e+01      4.98880000e-01      
7.98400000e+01      5.12200000e-01      
7.99300000e+01      5.37040000e-01      
7.99700000e+01      5.50000000e-01      
8.00000000e+01      5.00000000e-01      
8.00300000e+01      5.00000000e-01      
8.01400000e+01      3.70080000e-01      
8.02100000e+01      3.68730000e-01      
8.02700000e+01      3.56990000e-01      
8.03700000e+01      3.35190000e-01      
8.04100000e+01      3.26290000e-01      
8.04400000e+01      3.19820000e-01      
8.04800000e+01      3.48730000e-01      
8.05100000e+01      3.70290000e-01      
8.05400000e+01      4.00000000e-01      
8.06000000e+01      3.89840000e-01      
8.06500000e+01      3.69930000e-01      
8.07000000e+01      3.26290000e-01      
8.07300000e+01      3.00000000e-01      
8.07800000e+01      3.44440000e-01      
8.08300000e+01      4.04840000e-01      
8.09000000e+01      5.79100000e-01      
8.09400000e+01      6.79720000e-01      
8.09700000e+01      5.09320000e-01      
8.10600000e+01      5.19610000e-01      
8.12200000e+01      5.09710000e-01      
8.12700000e+01      5.99170000e-01      
8.13200000e+01      5.62750000e-01      
8.13500000e+01      5.39870000e-01      
8.14500000e+01      3.13430000e-01      
8.15000000e+01      2.00500000e-01      
8.15500000e+01      2.51850000e-01      
8.15800000e+01      2.82660000e-01      
8.16200000e+01      3.24350000e-01      
8.16500000e+01      3.56140000e-01      
8.16800000e+01      3.86730000e-01      
8.17300000e+01      4.39090000e-01      
8.17600000e+01      4.70090000e-01      
8.17900000e+01      4.43430000e-01      
8.18200000e+01      4.16520000e-01      
8.18500000e+01      3.90090000e-01      
8.18800000e+01      4.29410000e-01      
8.19500000e+01      5.19880000e-01      
8.19900000e+01      5.11760000e-01      
8.20200000e+01      5.05880000e-01      
8.20500000e+01      5.00000000e-01      
8.20900000e+01      5.20000000e-01      
8.21200000e+01      4.71330000e-01      
8.21600000e+01      4.06040000e-01      
8.22500000e+01      2.60050000e-01      
8.23000000e+01      3.21930000e-01      
8.23700000e+01      4.09840000e-01      
8.24000000e+01      4.47900000e-01      
8.24500000e+01      5.09920000e-01      
8.24900000e+01      5.00000000e-01      
8.25300000e+01      5.19200000e-01      
8.25600000e+01      5.33080000e-01      
8.26200000e+01      5.61140000e-01      
8.26600000e+01      5.80240000e-01      
8.26900000e+01      5.68120000e-01      
8.27200000e+01      5.56250000e-01      
8.27800000e+01      5.33110000e-01      
8.28100000e+01      5.20810000e-01      
8.28700000e+01      4.97710000e-01      
8.29100000e+01      4.81540000e-01      
8.29400000e+01      4.70000000e-01      
8.30500000e+01      3.79820000e-01      
8.31100000e+01      3.40150000e-01      
8.31600000e+01      4.19670000e-01      
8.32500000e+01      3.90080000e-01      
8.32800000e+01      4.23120000e-01      
8.33200000e+01      4.67790000e-01      
8.33700000e+01      5.23080000e-01      
8.34000000e+01      5.56730000e-01      
8.34300000e+01      5.91350000e-01      
8.34600000e+01      3.90240000e-01      
8.35200000e+01      5.78480000e-01      
8.35600000e+01      5.93410000e-01      
8.35900000e+01      6.00000000e-01      
8.37300000e+01      4.76300000e-01      
8.37600000e+01      4.49640000e-01      
8.38500000e+01      3.70250000e-01      
8.39300000e+01      4.23020000e-01      
8.39700000e+01      4.49640000e-01      
8.40000000e+01      4.59860000e-01      
8.40500000e+01      4.50340000e-01      
8.41500000e+01      4.29920000e-01      
8.42000000e+01      5.04790000e-01      
8.42500000e+01      5.78950000e-01      
8.42900000e+01      6.41030000e-01      
8.43500000e+01      6.10390000e-01      
8.44600000e+01      5.53140000e-01      
8.47000000e+01      4.30000000e-01      
8.48500000e+01      4.63090000e-01      
8.48800000e+01      4.70270000e-01      
8.49700000e+01      4.10200000e-01      
8.51300000e+01      6.07930000e-01      
8.52000000e+01      5.97940000e-01      
8.52800000e+01      6.90910000e-01      
8.54300000e+01      5.69890000e-01      
8.55600000e+01      4.70140000e-01      
8.56300000e+01      5.91400000e-01      
8.56700000e+01      5.30000000e-01      
8.57000000e+01      5.50290000e-01      
8.57600000e+01      3.89740000e-01      
8.57900000e+01      3.90300000e-01      
8.58200000e+01      3.77210000e-01      
8.59100000e+01      3.40000000e-01      
8.59500000e+01      4.09920000e-01      
8.59800000e+01      4.10000000e-01      
8.60200000e+01      4.09920000e-01      
8.60600000e+01      5.69440000e-01      
8.61100000e+01      5.50290000e-01      
8.61500000e+01      5.82470000e-01      
8.62000000e+01      5.61250000e-01      
8.62300000e+01      5.50340000e-01      
8.62900000e+01      7.58890000e-01      
8.63300000e+01      7.01920000e-01      
8.63700000e+01      7.00000000e-01      
8.64000000e+01      6.12180000e-01      
8.64400000e+01      4.95450000e-01      
8.64700000e+01      4.07830000e-01      
8.65000000e+01      3.20370000e-01      
8.65300000e+01      5.09730000e-01      
8.65900000e+01      4.70340000e-01      
8.66300000e+01      4.60000000e-01      
8.66700000e+01      4.50000000e-01      
8.67100000e+01      4.65650000e-01      
8.67700000e+01      4.89860000e-01      
8.68600000e+01      5.88830000e-01      
8.68900000e+01      6.18560000e-01      
8.69400000e+01      6.18680000e-01      
8.70000000e+01      6.28870000e-01      
8.70300000e+01      5.29150000e-01      
8.71100000e+01      5.20130000e-01      
8.71400000e+01      5.09770000e-01      
8.71700000e+01      5.20290000e-01      
8.72100000e+01      5.39710000e-01      
8.72800000e+01      4.90000000e-01      
8.73100000e+01      4.77780000e-01      
8.74000000e+01      4.41910000e-01      
8.74300000e+01      4.29920000e-01      
8.74800000e+01      4.30160000e-01      
8.75100000e+01      4.30300000e-01      
8.75500000e+01      4.62120000e-01      
8.75800000e+01      4.85820000e-01      
8.76100000e+01      5.09860000e-01      
8.76200000e+01      4.92200000e-01      
8.76500000e+01      4.39870000e-01      
8.76800000e+01      4.49670000e-01      
8.77900000e+01      5.82470000e-01      
8.78200000e+01      6.19510000e-01      
8.78600000e+01      5.83760000e-01      
8.78900000e+01      5.57890000e-01      
8.79400000e+01      5.09940000e-01      
8.79800000e+01      5.51550000e-01      
8.80200000e+01      5.30170000e-01      
8.81100000e+01      5.27900000e-01      
8.81800000e+01      5.50680000e-01      
8.82300000e+01      5.21590000e-01      
8.82500000e+01      5.49710000e-01      
8.83000000e+01      5.23300000e-01      
8.83400000e+01      5.00000000e-01      
8.84000000e+01      4.40210000e-01      
8.84300000e+01      4.37060000e-01      
8.85000000e+01      4.28950000e-01      
8.85300000e+01      4.50980000e-01      
8.85700000e+01      4.80600000e-01      
8.86300000e+01      4.20000000e-01      
8.86800000e+01      4.29750000e-01      
8.87300000e+01      4.54840000e-01      
8.87600000e+01      4.70000000e-01      
8.87900000e+01      5.00000000e-01      
8.88400000e+01      5.88740000e-01      
8.89400000e+01      7.59550000e-01      
8.90900000e+01      5.69170000e-01      
8.92000000e+01      4.30220000e-01      
8.92700000e+01      4.43580000e-01      
8.94100000e+01      4.71540000e-01      
8.94500000e+01      4.79670000e-01      
8.95600000e+01      5.00000000e-01      
8.96600000e+01      5.46650000e-01      
8.96900000e+01      5.61080000e-01      
8.97300000e+01      5.79100000e-01      
8.98000000e+01      5.83440000e-01      
8.98700000e+01      5.86380000e-01      
8.99600000e+01      5.89930000e-01      
9.01000000e+01      5.98570000e-01      
9.01500000e+01      5.98480000e-01      
9.02400000e+01      5.78310000e-01      
9.02800000e+01      5.85370000e-01      
9.03700000e+01      5.92890000e-01      
9.05100000e+01      6.11310000e-01      
9.06100000e+01      6.08800000e-01      
9.06800000e+01      6.99400000e-01      
9.07600000e+01      6.70370000e-01      
9.08500000e+01      6.08890000e-01      
9.10500000e+01      6.18750000e-01      
9.11400000e+01      6.19050000e-01      
9.12100000e+01      6.20210000e-01      
9.13400000e+01      6.61760000e-01      
9.14200000e+01      6.50180000e-01      
9.14800000e+01      6.48750000e-01      
9.16000000e+01      6.71100000e-01      
9.17000000e+01      7.09270000e-01      
9.17800000e+01      7.50800000e-01      
9.19000000e+01      7.48550000e-01      
9.20000000e+01      7.10370000e-01      
9.21400000e+01      6.08840000e-01      
9.22300000e+01      5.40980000e-01      
9.23400000e+01      4.98490000e-01      
9.24000000e+01      4.98490000e-01      
9.24400000e+01      5.00000000e-01      
9.24800000e+01      5.00000000e-01      
9.25100000e+01      5.09150000e-01      
9.25800000e+01      5.01490000e-01      
9.26000000e+01      4.98490000e-01      
9.26800000e+01      4.91330000e-01      
9.28800000e+01      5.68970000e-01      
9.30000000e+01      6.48560000e-01      
9.30300000e+01      7.09880000e-01      
9.31500000e+01      6.68850000e-01      
9.33000000e+01      6.17920000e-01      
9.34600000e+01      5.60130000e-01      
9.35600000e+01      5.22220000e-01      
9.36200000e+01      5.00000000e-01      
9.36900000e+01      5.00000000e-01      
9.37600000e+01      4.90110000e-01      
9.40200000e+01      3.91590000e-01      
9.41600000e+01      4.60050000e-01      
9.42200000e+01      4.59060000e-01      
9.43200000e+01      4.70910000e-01      
9.44800000e+01      4.39910000e-01      
9.45200000e+01      4.30090000e-01      
9.46000000e+01      4.29850000e-01      
9.46700000e+01      4.40110000e-01      
9.48100000e+01      4.60130000e-01      
9.49100000e+01      4.90300000e-01      
9.49700000e+01      5.20000000e-01      
9.50900000e+01      5.40140000e-01      
9.52300000e+01      5.00000000e-01      
9.53700000e+01      3.89880000e-01      
9.54800000e+01      4.00000000e-01      
9.55700000e+01      4.50000000e-01      
9.56900000e+01      4.90060000e-01      
9.57800000e+01      4.70180000e-01      
9.58400000e+01      4.89820000e-01      
9.60000000e+01      4.80100000e-01      
9.60700000e+01      4.49760000e-01      
9.61700000e+01      5.00000000e-01      
9.62800000e+01      5.48390000e-01      
9.64100000e+01      5.09890000e-01      
9.64800000e+01      4.80000000e-01      
9.66000000e+01      4.20100000e-01      
9.67500000e+01      4.00000000e-01      
